411|698|990|1306|1615|1912|2203|2490|2783|3074|3374|3693|3999|4290|4580|4867|5165|5467|5769|6085|6382|6666|6952|7243|7550|7858|8161|8474|8765|9044|9334|9632|9941|10246|10544|10846|11132|11415|11711|12019|12332|12634|12928|13224|13512|13798|14099|14410|14719|15014|15302|15599|15891|16185|16493|16804|17109|17394|17681|17981|18275|18574|18880|19186|19481|19767|20056|20360|20664|20966|21269|21569|21858|22143|22435|22745|23051|23351|23648|23945|24235|24523|24826|25139|25443|25738|26026|26318|26608|26900|27212|27523|27822|28115|28393|28701|28992|29277|29583|29881|30162|30441|30717|31000|31290|31587|31883|32182|32467|32736|33011|33298|33596|33884|34059|34376|34668|34951|35240|35537|35849|36154|36453|36756|37045|37328|37620|37915|38240|38542|38825|39117|39402|39684|39978|40281|40590|40881|41158|41451|41733|42014|42318|42617|42917|43204|43482|43768|44056|44352|44651|44946|45245|45522|45800|46089|46381|46680|46979|47269|47562|47842|48118|48406|48710|49004|49294|49581|49860|50144|50420|50702|51014|51314|51598|51884|52162|52443|52726|53012|53319|53616|53894|54175|54452|54734|55021|55316|55619|55912|56193|56470|56744|57036|57331|57622|57923|58216|58492|58767|59046|59337|59639|59935|60225|60516|60793|61064|61350|61648|61948|62243|62532|62827|63115|63400|63699|64011|64323|64621|64908|65205|65495|65783|66086|66397|66703|66991|67281|67579|67874|68174|68480|68789|69085|69368|69657|69955|70254|70558|70862|71165|71458|71744|72038|72344|72648|72951|73250|73545|73833|74119|74419|74731|75034|75335|75628|75922|76211|76502|76812|77121|77421|77715|78002|78296|78587|78885|79201|79509|79805|80095|80382|80679|80978|81279|81593|81896|82180|82468|82757|83062|83368|83670|83984|84279|84560|84849|85144|85453|85758|86056|86361|86651|86934|87228|87533|87847|88151|88444|88742|89030|89316|89613|89920|90235|90530|90816|91115|91407|91698|92005|92312|92620|92909|93191|93490|93783|94080|94387|94693|94994|95281|95567|95869|96172|96473|96777|97078|97370|97654|97942|98250|98560|98857|99157|99453|99744|100030|100329|100642|100946|101244|101534|101825|102114|102405|102713|103026|103329|103623|103911|104204|104497|104796|105107|105416|105710|105997|106283|106579|106881|107185|107498|107803|108089|108374|108664|108966|109270|109572|109882|110175|110459|110749|111043|111356|111663|111963|112266|112556|112839|113131|113431|113746|114051|114342|114640|114933|115217|115519|115818|116141|116438|116722|117019|117310|117601|117907|118215|118522|118812|119096|119395|119693|119993|120299|120604|120905|121190|121472|121774|122077|122381|122685|122984|123282|123567|123854|124164|124470|124769|125067|125358|125649|125936|126230|126547|126854|127151|127445|127736|128027|128319|128623|128937|129240|129530|129816|130107|130402|130702|131012|131326|131624|131908|132194|132489|132789|133090|133400|133707|133993|134277|134567|134869|135177|135480|135788|136085|136367|136654|136946|137256|137565|137865|138165|138458|138743|139034|139338|139654|139959|140252|140548|140837|141122|141418|141725|142038|142337|142624|142921|143212|143506|143814|144120|144430|144720|145002|145298|145593|145893|146202|146508|146811|147099|147381|147684|147988|148289|148595|148893|149187|149471|149756|150067|150377|150678|150980|151272|151565|151850|152143|152460|152766|153063|153354|153642|153935|154227|154529|154849|155154|155445|155731|156021|156318|156616|156922|157237|157533|157814|158101|158395|158697|159003|159312|159619|159906|160189|160477|160780|161085|161388|161695|161991|162277|162564|162858|163171|163480|163778|164079|164371|164654|164943|165243|165558|165862|166154|166454|166746|167032|167332|167639|167950|168248|168533|168828|169119|169410|169716|170023|170333|170626|170910|171208|171504|171803|172110|172414|172717|173002|173285|173586|173888|174190|174496|174796|175091|175378|175664|175973|176278|176578|176879|177171|177462|177749|178043|178360|178669|178967|179261|179551|179843|180134|180435|180752|181057|181345|181632|181924|182218|182517|182830|183144|183441|183725|184011|184305|184604|184906|185216|185522|185811|186096|186385|186688|186996|187300|187608|187905|188187|188473|188765|189075|189383|189683|189985|190278|190562|190853|191156|191470|191774|192066|192363|192652|192935|193234|193540|193854|194153|194441|194739|195030|195322|195628|195934|196244|196535|196814|197112|197409|197705|198013|198319|198623|198909|199193|199495|199796|200097|200401|200701|200993|201278|201566|201875|202182|202483|202784|203080|203371|203657|203953|204266|204571|204869|205161|205453|205746|206036|206343|206659|206961|207254|207542|207745|208045|208341|208645|208961|209261|209547|209835|210128|210428|210731|211040|211350|211644|211926|212212|212510|212814|213118|213425|213730|214019|214302|214592|214900|215210|215510|215815|216109|216392|216679|216975|217287|217595|217893|218192|218483|218768|219064|219369|219681|219986|220275|220567|220857|221146|221449|221758|222071|222368|222652|222949|223242|223537|223844|224149|224452|224740|225021|225322|225620|225923|226232|226535|226833|227116|227400|227706|228011|228312|228615|228910|229202|229488|229777|230093|230403|230699|230996|231288|231579|231866|232165|232482|232787|233079|233368|233659|233952|234247|234557|234871|235170|235458|235742|236035|236332|236634|236943|237253|237545|237831|238119|238419|238726|239028|239338|239640|239923|240207|240497|240801|241110|241412|241718|242012|242296|242588|242886|243199|243504|243802|244100|244388|244673|244969|245274|245589|245894|246183|246480|246771|247058|247362|247668|247980|248274|248556|248856|249147|249442|249752|250060|250365|250653|250936|251236|251534|251835|252140|252442|252739|253023|253308|253615|253921|254225|254528|254824|255118|255402|255692|256004|256311|256607|256902|257195|257487|257775|258076|258394|258697|258991|259280|259572|259864|260156|260464|260777|261078|261368|261654|261950|262248|262549|262860|263169|263460|263744|264031|264330|264630|264932|265246|265547|265833|266122|266412|266719|267024|267324|267633|267924|268206|268496|268791|269105|269412|269711|270013|270303|270587|270883|271187|271501|271804|272092|272389|272678|272963|273266|273576|273887|274183|274469|274767|275056|275350|275657|275964|276269|276555|276841|277140|277439|277741|278048|278356|278652|278936|279222|279527|279832|280130|280434|280733|281023|281308|281603|281916|282222|282522|282819|283112|283400|283686|283989|284302|284606|284903|285192|285487|285778|286073|286386|286696|286994|287285|287570|287865|288160|288458|288773|289081|289371|289660|289949|290248|290550|290850|291165|291463|291746|292034|292324|292629|292934|293236|293548|293840|294124|294414|294711|295024|295328|295624|295928|296216|296496|296790|297097|297411|297712|298007|298306|298592|298877|299179|299488|299795|300090|300379|300674|300963|301258|301566|301879|302182|302471|302760|303054|303349|303651|303956|304266|304560|304843|305138|305437|305738|306045|306349|306650|306937|307219|307518|307822|308124|308431|308728|309025|309313|309598|309908|310219|310520|310821|311110|311403|311691|311981|312298|312608|312905|313200|313489|313785|314076|314377|314695|315000|315289|315576|315863|316159|316458|316762|317080|317378|317663|317951|318243|318547|318853|319156|319466|319755|320035|320323|320623|320936|321241|321545|321845|322132|322413|322706|323017|323324|323624|323923|324215|324498|324789|325091|325408|325714|326007|326302|326592|326879|327178|327484|327797|328096|328379|328674|328970|329263|329571|329878|330188|330477|330758|331057|331354|331652|331959|332263|332564|332850|333134|333437|333741|334044|334348|334645|334939|335225|335511|335820|336128|336429|336729|337022|337318|337605|337901|338217|338522|338816|339108|339397|339687|339980|340284|340599|340903|341196|341484|341778|342072|342371|342681|342991|343287|343572|343857|344154|344455|344760|345071|345379|345667|345952|346239|346543|346849|347150|347460|347756|348037|348326|348620|348932|349239|349539|349844|350133|350416|350707|351010|351323|351626|351919|352215|352506|352793|353094|353403|353718|354015|354299|354597|354886|355177|355481|355788|356096|356385|356671|356970|357264|357563|357871|358177|358476|358761|359047|359346|359647|359949|360254|360557|360850|361136|361427|361735|362042|362341|362640|362936|363223|363508|363809|364120|364425|364726|365018|365313|365601|365890|366201|366510|366810|367105|367391|367684|367976|368273|368589|368899|369193|369484|369771|370068|370367|370668|370983|371286|371568|371856|372146|372448|372754|373057|373372|373665|373947|374235|374530|374841|375143|375443|375749|376038|376321|376614|376918|377234|377537|377830|378130|378418|378700|378999|379307|379619|379914|380204|380503|380794|381085|381391|381702|382007|382296|382584|382879|383171|383470|383776|384085|384384|384671|384962|385260|385559|385864|386166|386472|386762|387044|387339|387642|387944|388250|388551|388849|389137|389421|389725|390033|390335|390638|390931|391223|391509|391797|392110|392422|392723|393021|393310|393603|393892|394188|394506|394813|395105|395392|395679|395976|396271|396576|396896|397198|397482|397768|398058|398358|398660|398966|399278|399570|399852|400138|400437|400745|401054|401358|401661|401948|402230|402519|402826|403136|403438|403739|404033|404319|404607|404905|405219|405526|405823|406119|406409|406693|406989|407294|407607|407911|408200|408495|408787|409077|409383|409690|410000|410296|410578|410872|411167|411463|411771|412078|412384|412672|412955|413256|413556|413858|414165|414465|414761|415043|415328|415635|415942|416245|416550|416845|417138|417424|417714|418029|418336|418633|418927|419218|419510|419799|420099|420418|420723|421014|421303|421595|421886|422182|422491|422803|423100|423388|423674|423970|424268|424570|424883|425191|425481|425767|426053|426353|426657|426957|427268|427569|427853|428141|428434|428743|429049|429348|429657|429948|430230|430520|430818|431129|431433|431730|432031|432320|432606|432901|433208|433522|433823|434113|434409|434696|434984|435287|435596|435909|436203|436490|436788|437078|437371|437678|437986|438287|438574|438861|439159|439455|439757|440065|440373|440666|440952|441244|441544|441849|442152|442454|442753|443041|443325|443622|443933|444239|444543|444839|445134|445421|445707|446016|446326|446626|446925|447214|447506|447796|448090|448406|448717|449014|449306|449592|449886|450180|450481|450797|451102|451391|451678|451967|452269|452571|452875|453190|453486|453768|454053|454345|454649|454954|455258|455566|455855|456138|456428|456731|457040|457345|457647|457944|458228|458513|458807|459119|459428|459729|460027|460320|460607|460897|461200|461515|461817|462109|462404|462694|462981|463281|463590|463902|464200|464485|464782|465074|465366|465673|465979|466286|466576|466858|467156|467453|467754|468063|468369|468670|468956|469239|469542|469845|470144|470448|470746|471038|471324|471614|471924|472231|472533|472832|473125|473416|473702|474001|474314|474620|474917|475207|475499|475792|476085|476393|476710|477011|477300|477587|477880|478173|478472|478785|479094|479387|479675|479965|480262|480563|480866|481179|481480|481765|482052|482342|482646|482950|483251|483564|483857|484141|484431|484727|485040|485344|485642|485947|486234|486515|486806|487111|487423|487726|488022|488321|488608|488892|489190|489503|489810|490106|490396|490690|490978|491272|491577|491892|492197|492485|492775|493069|493361|493663|493969|494279|494573|494854|495149|495447|495747|496055|496361|496664|496951|497233|497531|497834|498136|498442|498741|499037|499323|499610|499918|500226|500530|500831|501122|501416|501701|501992|502308|502614|502910|503205|503495|503788|504079|504381|504698|505000|505293|505581|505871|506164|506462|506770|507083|507383|507669|507956|508163|508462|508762|509066|509380|509676|509957|510242|510538|510845|511149|511456|511764|512053|512336|512624|512928|513237|513538|513841|514137|514420|514707|515004|515316|515625|515926|516224|516515|516800|517094|517397|517711|518014|518303|518599|518889|519177|519480|519790|520101|520397|520681|520978|521268|521561|521870|522175|522481|522769|523052|523353|523651|523952|524258|524565|524861|525145|525431|525733|526038|526336|526640|526941|527231|527516|527813|528122|528428|528730|529026|529321|529606|529892|530196|530506|530809|531110|531401|531695|531986|532279|532592|532902|533200|533493|533779|534074|534367|534666|534983|535291|535580|535869|536159|536455|536755|537058|537373|537669|537953|538241|538532|538837|539142|539448|539759|540050|540333|540621|540920|541230|541533|541836|542136|542423|542705|542999|543309|543619|543921|544221|544516|544800|545088|545388|545702|546006|546300|546595|546886|547173|547473|547782|548096|548395|548680|548975|549265|549559|549864|550170|550481|550772|551054|551353|551650|551949|552255|552560|552860|553145|553429|553730|554031|554331|554636|554938|555232|555518|555809|556115|556422|556724|557022|557319|557607|557892|558191|558502|558808|559109|559402|559696|559986|560273|560584|560895|561194|561489|561777|562069|562359|562655|562973|563283|563577|563867|564060|564352|564648|564950|565262|565568|565859|566145|566432|566734|567038|567341|567657|567955|568237|568525|568815|569121|569427|569727|570037|570326|570608|570901|571200|571514|571818|572117|572417|572705|572988|573282|573589|573902|574202|574494|574792|575082|575369|575673|575985|576292|576585|576876|577170|577458|577754|578061|578372|578673|578959|579252|579548|579841|580148|580454|580761|581052|581335|581630|581928|582229|582536|582842|583145|583431|583715|584018|584322|584624|584927|585224|585517|585801|586087|586399|586706|587007|587307|587600|587892|588178|588475|588789|589094|589391|589681|589972|590264|590556|590864|591180|591482|591773|592059|592353|592646|592943|593257|593566|593858|594146|594434|594731|595030|595334|595651|595951|596236|596524|596812|597115|597420|597722|598034|598327|598610|598900|599197|599510|599816|600115|600419|600705|600985|601276|601582|601892|602195|602493|602790|603076|603364|603663|603976|604285|604580|604873|605165|605452|605746|606051|606365|606671|606959|607251|607547|607838|608141|608448|608758|609051|609333|609628|609925|610219|610517|610833|611137|611423|611706|612006|612308|612610|612916|613216|613511|613796|614080|614389|614697|615000|615302|615596|615889|616174|616467|616782|617088|617383|617676|617968|618258|618549|618856|619170|619472|619767|620054|620348|620638|620932|621245|621555|621851|622142|622429|622728|623025|623324|623642|623950|624225|624521|624808|625109|625410|625711|626028|626325|626608|626896|627189|627497|627802|628104|628411|628699|628979|629268|629569|629881|630187|630489|630786|631073|631359|631654|631965|632276|632573|632869|633162|633446|633737|634041|634355|634661|634953|635248|635538|635825|636129|636437|636747|637043|637327|637622|637915|638212|638521|638830|639137|639425|639707|640007|640305|640604|640912|641215|641513|641796|642082|642391|642696|642997|643302|643598|643889|644173|644464|644776|645083|645381|645679|645972|646262|646552|646854|647169|647473|647770|648057|648352|648641|648932|649245|649554|