398|713|1034|1370|1713|2037|2350|2663|2973|3302|3632|3962|4284|4611|4929|5242|5570|5900|6224|6529|6831|7144|7464|7787|8107|8415|8723|9027|9322|9630|9954|10282|10591|10893|11186|11472|11761|12051|12339|12622|12912|13185|13458|13741|14031|14334|14642|14925|15197|15475|15762|16053|16352|16656|16958|17252|17533|17815|18100|18397|18688|18978|19269|19560|19862|20174|20495|20823|21167|21500|21810|22131|22453|22783|23128|23458|23776|24091|24405|24721|25041|25375|25705|26010|26311|26638|26969|27304|27623|27935|28244|28560|28862|29156|29469|29783|30090|30388|30689|30986|31311|31636|31948|32263|32567|32868|33166|33468|33778|34093|34392|34680|34981|35290|35599|35913|36218|36531|36839|37142|37451|37774|38101|38431|38750|39060|39377|39693|40015|40341|40669|40977|41267|41544|41831|42127|42422|42715|42991|43269|43547|43818|44096|44389|44677|44978|45271|45554|45841|46139|46442|46752|47061|47361|47657|47946|48229|48518|48822|49127|49424|49700|49979|50250|50529|50817|51116|51401|51688|51967|52240|52513|52795|53088|53382|53669|53949|54222|54518|54816|55109|55406|55711|56012|56308|56608|56919|57253|57593|57929|58246|58543|58847|59167|59491|59823|60158|60478|60786|61090|61396|61728|62059|62361|62673|62996|63106|63417|63633|63968|64293|64629|64931|65246|65577|65907|66226|66566|66891|67200|67511|67833|68165|68506|68832|69138|69447|69758|70083|70418|70753|71089|71402|71711|72022|72351|72681|73003|73308|73602|73913|74231|74558|74897|75215|75538|75855|76169|76495|76832|77163|77499|77829|78149|78476|78816|79160|79517|79854|80162|80466|80774|81109|81454|81791|82114|82444|82774|83108|83435|83778|84119|84429|84736|85074|85419|85754|86070|86373|86685|86994|87307|87656|88002|88339|88669|89000|89347|89700|90061|90400|90738|91070|91398|91744|92095|92449|92793|93132|93473|93818|94159|94518|94870|95200|95529|95865|96228|96591|96942|97286|97614|97951|98292|98648|99013|99359|99694|100017|100362|100724|101087|101428|101773|102114|102457|102826|103199|103557|103882|104212|104550|104884|105200|105533|105853|106183|106506|106844|107210|107568|107919|108254|108575|108920|109276|109636|109999|110348|110692|111048|111411|111793|112167|112523|112882|113247|113617|113986|114355|114670|115063|115172|115299|115743|116092|116438|116771|117099|117434|117781|118145|118513|118854|119178|119513|119847|120172|120504|120825|121149|121460|121761|122093|122447|122804|123146|123477|123824|124180|124537|124895|125234|125564|125890|126228|126593|126954|127300|127638|127969|128291|128632|128986|129354|129695|130008|130334|130650|130990|131321|131648|131958|132268|132577|132912|133274|133650|134019|134366|134722|135106|135300|135726|136089|136436|136787|137139|137509|137888|138233|138583|138936|139312|139691|140064|140435|140776|141128|141495|141875|142252|142611|142949|143308|143681|144061|144441|144810|145158|145509|145879|146251|146605|146962|147316|147672|148052|148436|148812|149167|149522|149883|150261|150650|151014|151368|151730|152094|152471|152862|153245|153599|153962|154345|154724|155102|155478|155839|156188|156557|156946|157324|157674|158029|158386|158756|159119|159490|159868|160217|160575|160952|161335|161718|162088|162457|162820|163205|163596|163973|164335|164693|165055|165442|165834|166204|166560|166921|167294|167656|168031|168390|168729|169055|169392|169766|170130|170483|170845|171193|171539|171903|172273|172647|172992|173331|173702|174088|174456|174835|175194|175546|175916|176287|176665|177034|177380|177698|178031|178390|178754|179131|179492|179837|180215|180598|180976|181344|181692|182044|182388|182734|183075|183426|183769|184106|184449|184808|185158|185495|185823|186155|186491|186847|187207|187571|187896|188209|188531|188862|189213|189563|189901|190237|190565|190883|191227|191581|191937|192264|192588|192920|193258|193606|193950|194286|194623|194955|195287|195638|196005|196366|196704|197046|197392|197735|198084|198434|198781|199118|199459|199812|200170|200526|200872|201215|201552|201896|202244|202599|202961|203310|203649|203998|204345|204690|205034|205366|205698|206049|206420|206787|207161|207522|207880|208236|208625|209016|209378|209747|210110|210474|210849|211240|211623|211977|212353|212727|213096|213463|213814|214153|214497|214849|215235|215568|215982|216338|216690|217039|217390|217721|218061|218392|218713|219068|219443|219820|220185|220550|220917|221282|221669|222039|222390|222731|223065|223419|223783|224138|224487|224827|225173|225516|225891|226267|226636|226998|227352|227706|228088|228468|228827|229193|229551|229901|230274|230662|231034|231375|231736|232106|232477|232854|233229|233594|233941|234310|234707|235085|235453|235813|236175|236544|236937|237327|237682|238028|238383|238735|239110|239483|239830|240177|240537|240906|241282|241665|242036|242386|242752|243140|243529|243904|244269|244640|244996|245376|245770|246140|246489|246845|247225|247599|247977|248352|248708|249047|249407|249784|250146|250508|250854|251204|251552|251920|252301|252662|253019|253375|253745|254124|254502|254874|255221|255587|255963|256343|256734|257110|257460|257825|258208|258587|258959|259326|259684|260024|260377|260753|261128|261479|261829|262187|262550|262923|263299|263647|264003|264358|264716|265099|265472|265818|266169|266535|266900|267270|267639|267999|268348|268695|269072|269453|269815|270173|270537|270888|271261|271644|272007|272362|272716|273078|273449|273823|274191|274539|274897|275263|275622|276003|276379|276727|277070|277435|277819|278182|278540|278907|279256|279605|279984|280374|280736|281091|281455|281823|282193|282576|282946|283298|283659|284024|284408|284779|285148|285503|285851|286223|286600|286967|287328|287682|288033|288395|288786|289150|289508|289870|290215|290576|290955|291320|291674|292027|292376|292740|293119|293495|293845|294196|294554|294910|295271|295639|295990|296336|296689|297071|297446|297809|298185|298540|298893|299268|299627|299991|300326|300640|300971|301302|301658|302026|302395|302746|303103|303474|303863|304241|304612|304979|305340|305706|306083|306472|306834|307191|307546|307909|308254|308639|308981|309328|309670|310030|310409|310786|311134|311478|311826|312173|312540|312907|313250|313595|313945|314288|314651|314987|315307|315613|315924|316236|316566|316904|317233|317586|317930|318280|318638|319019|319401|319762|320109|320469|320839|321221|321586|321951|322302|322650|323016|323393|323763|324113|324456|324816|325184|325549|325914|326259|326573|326886|327203|327557|327918|328269|328619|328974|329340|329722|330091|330466|330827|331199|331575|331953|332322|332689|333052|333407|333743|334111|334458|334786|335096|335400|335711|336020|336346|336670|336996|337311|337626|337953|338301|338661|339016|339362|339726|340073|340436|340786|341116|341443|341775|342125|342508|342890|343270|343636|344008|344379|344748|345125|345488|345829|346156|346499|346861|347207|347528|347858|348191|348522|348870|349229|349594|349932|350240|350540|350843|351150|351456|351780|352102|352442|352787|353152|353535|353900|354251|354581|354910|355233|355575|355931|356294|356647|356995|357361|357746|358130|358499|358863|359221|359580|359960|360335|360701|361033|361363|361718|362059|362409|362745|363049|363348|363644|363939|364268|364620|364955|365271|365584|365914|366277|366654|367037|367415|367783|368158|368550|368945|369318|369657|370014|370371|370729|371094|371451|371804|372149|372502|372879|373240|373595|373944|374301|374662|375033|375415|375775|376123|376475|376838|377206|377568|377927|378286|378626|378974|379347|379721|380075|380416|380757|381120|381466|381797|382143|382469|382798|383122|383469|383845|384198|384548|384896|385245|385607|385981|386358|386717|387069|387422|387769|388136|388476|388797|389108|389433|389770|390118|390467|390824|391176|391525|391876|392255|392629|392981|393322|393675|394030|394392|394774|395130|395459|395803|396152|396527|396898|397269|397623|397966|398316|398683|399047|399412|399766|400113|400452|400802|401149|401491|401829|402178|402535|402898|403283|403662|404031|404382|404751|405130|405502|405886|406251|406606|406959|407341|407728|408090|408452|408808|409156|409530|409911|410280|410631|410982|411333|411708|412081|412441|412794|413151|413500|413864|414255|414616|414962|415318|415670|416042|416411|416771|417125|417470|417817|418184|418564|418917|419266|419622|419971|420343|420701|421067|421421|421762|422114|422483|422860|423217|423555|423892|424230|424561|424894|425241|425584|425921|426267|426622|427005|427380|427735|428094|428438|428797|429174|429556|429909|430259|430625|430984|431355|431725|432070|432417|432758|433092|433454|433816|434164|434499|434852|435218|435586|435958|436332|436677|437020|437385|437769|438135|438483|438830|439176|439526|439878|440233|440584|440926|441255|441605|441955|442312|442651|442969|443290|443608|443940|444299|444648|444976|445307|445643|445997|446351|446714|447076|447419|447759|448113|448463|448828|449182|449516|449864|450214|450556|450910|451255|451599|451941|452284|452644|453000|453354|453696|454030|454379|454720|455086|455453|455803|456134|456471|456817|457177|457520|457862|458212|458547|458888|459252|459603|459961|460307|460629|460980|461331|461675|462020|462358|462692|463025|463380|463761|464116|464468|464801|465148|465503|465866|466220|466558|466881|467208|467555|467905|468266|468611|468933|469272|469615|469964|470329|470682|471033|471373|471714|472078|472439|472799|473150|473504|473857|474197|474557|474919|475263|475591|475931|476294|476654|477022|477371|477714|478042|478387|478749|479117|479464|479808|480162|480520|480875|481251|481614|481949|482287|482628|482998|483344|483691|484032|484363|484705|485048|485407|485772|486126|486477|486838|487214|487598|487955|488305|488656|489006|489362|489720|490085|490434|490764|491103|491459|491816|492166|492497|492822|493148|493481|493822|494175|494512|494841|495169|495505|495854|496215|496576|496925|497245|497570|497904|498243|498576|498891|499192|499510|499821|500139|500464|500791|501118|501439|501763|502082|502428|502772|503107|503421|503725|504045|504378|504723|505089|505439|505769|506087|506420|506768|507112|507445|507793|508135|508482|508850|509232|509609|509952|510302|510665|511037|511413|511772|512124|512469|512823|513191|513557|513911|514267|514614|514967|515334|515705|516085|516441|516791|517136|517505|517878|518236|518581|518933|519283|519644|520013|520386|520737|521080|521440|521814|522174|522540|522874|523221|523564|523915|524262|524619|524967|525314|525655|526022|526401|526769|527130|527485|527826|528159|528507|528874|529225|529579|529944|530312|530690|531067|531431|531778|532015|532474|532865|533237|533599|533955|534316|534687|535058|535421|535771|536118|536483|536873|537272|537658|538041|538402|538749|539125|539507|539877|540218|540570|540937|541306|541666|542033|542398|542742|543087|543468|543848|544206|544557|544916|545286|545657|546037|546414|546758|547097|547456|547838|548212|548576|548944|549305|549664|550050|550433|550799|551144|551486|551844|552205|552572|552933|553273|553626|553988|554356|554726|555093|555439|555775|556139|556512|556873|557233|557594|557945|558299|558676|559056|559407|559750|560114|560471|560837|561211|561563|561885|562191|562517|562885|563257|563613|563969|564332|564688|565053|565438|565820|566170|566528|566898|567276|567647|568017|568386|568733|569086|569466|569845|570201|570551|570911|571274|571632|572005|572370|572721|573061|573416|573803|574174|574530|574881|575219|575559|575912|576278|576643|576986|577333|577697|578079|578463|578833|579194|579551|579897|580268|580649|581024|581382|581738|582111|582488|582862|583232|583587|583951|584308|584683|585062|585418|585761|586109|586481|586854|587221|587591|587926|588271|588630|589008|589372|589728|590081|590437|590790|591160|591532|591871|592202|592534|592863|593206|593544|593879|594217|594553|594906|595264|595638|596016|596369|596719|597080|597467|597839|598207|598574|598912|599259|599627|599991|600349|600694|601044|601396|601763|602127|602484|602838|603173|603507|603866|604230|604574|604908|605250|605582|605937|606302|606675|607019|607353|607687|608016|608359|608712|609059|609398|609751|610114|610500|610882|611263|611617|611967|612341|612709|613068|613423|613776|614128|614491|614853|615231|615590|615935|616289|616656|617036|617394|617765|618121|618469|618825|619200|619584|619939|620284|620648|621012|621380|621751|622123|622461|622799|623162|623530|623873|624215|624553|624892|625229|625592|625972|626333|626675|627023|627375|627727|628082|628435|628785|629132|629486|629864|630245|630626|630983|631341|631696|632065|632446|632813|633173|633527|633891|634280|634649|635010|635367|635729|636101|636484|636857|637217|637556|637898|638241|638590|638920|639256|639596|639947|640289|640651|641026|641397|641738|642073|642438|642813|643178|643543|643901|644268|644630|645014|645396|645750|646100|646452|646822|647196|647570|647936|648293|648649|649005|649373|